* Exported with UsyTrace, available at https://usyless.uk/trace
* Freq(Hz)	SPL(dB)
20.000000	56.842105
20.290907	56.850937
20.586045	56.902821
20.885476	56.955459
21.189262	57.008863
21.497467	57.062986
21.810155	57.113757
22.127391	57.154948
22.449241	57.190271
22.775773	57.232084
23.107054	57.268123
23.443154	57.300133
23.784142	57.330449
24.130091	57.360694
24.481071	57.394689
24.837156	57.427436
25.198421	57.457573
25.564940	57.483943
25.936791	57.510444
26.314050	57.536945
26.696797	57.561167
27.085111	57.584805
27.479073	57.606149
27.878765	57.627433
28.284271	57.646951
28.695675	57.666251
29.113064	57.686519
29.536523	57.707696
29.966142	57.729972
30.402009	57.753514
30.844217	57.775615
31.292856	57.796812
31.748021	57.817985
32.209807	57.839161
32.678309	57.861426
33.153626	57.884966
33.635857	57.910213
34.125101	57.936788
34.621462	57.966705
35.125043	57.996965
35.635949	58.027314
36.154286	58.057487
36.680162	58.085511
37.213687	58.112083
37.754973	58.146687
38.304131	58.181964
38.861278	58.217271
39.426528	58.251600
40.000000	58.281846
40.581813	58.312054
41.172089	58.342350
41.770951	58.372640
42.378524	58.407146
42.994934	58.439351
43.620309	58.469073
44.254781	58.495483
44.898482	58.521958
45.551545	58.548499
46.214108	58.578105
46.886308	58.605712
47.568285	58.629233
48.260181	58.650471
48.962142	58.669695
49.674312	58.689037
50.396842	58.708185
51.129881	58.727610
51.873582	58.748589
52.628101	58.769904
53.393594	58.790951
54.170222	58.812244
54.958146	58.831697
55.757531	58.851006
56.568542	58.871317
57.391351	58.892503
58.226127	58.913688
59.073046	58.934852
59.932283	58.956061
60.804018	58.977203
61.688433	58.997770
62.585712	59.016942
63.496042	59.036351
64.419613	59.055446
65.356618	59.074819
66.307252	59.091622
67.271713	59.107900
68.250203	59.124058
69.242925	59.137093
70.250086	59.150318
71.271897	59.163735
72.308571	59.175202
73.360323	59.186238
74.427374	59.197435
75.509945	59.208795
76.608262	59.219779
77.722555	59.230826
78.853056	59.242033
80.000000	59.253404
81.163627	59.257058
82.344179	59.260020
83.541903	59.263026
84.757048	59.266076
85.989867	59.269170
87.240619	59.272309
88.509563	59.275493
89.796964	59.278724
91.103091	59.282002
92.428216	59.285327
93.772615	59.288701
95.136569	59.292124
96.520362	59.295597
97.924283	59.298919
99.348625	59.301668
100.793684	59.304458
102.259762	59.307288
103.747164	59.310159
105.256202	59.313072
106.787188	59.316028
108.340444	59.319026
109.916292	59.322068
111.515061	59.325155
113.137085	59.328286
114.782702	59.331462
116.452255	59.334685
118.146092	59.337955
119.864566	59.341273
121.608036	59.348535
123.376866	59.357202
125.171424	59.365996
126.992084	59.374917
128.839227	59.383968
130.713236	59.389592
132.614504	59.394294
134.543426	59.399064
136.500406	59.403904
138.485850	59.408814
140.500173	59.413795
142.543795	59.418849
144.617142	59.423977
146.720647	59.429179
148.854748	59.425307
151.019890	59.420083
153.216525	59.414784
155.445111	59.409408
157.706112	59.403954
160.000000	59.398420
162.327254	59.392806
164.688358	59.387110
167.083805	59.367268
169.514095	59.343609
171.979734	59.317429
174.481237	59.289837
177.019125	59.259556
179.593928	59.225150
182.206182	59.189861
184.856431	59.154541
187.545230	59.119193
190.273138	59.083902
193.040725	59.053014
195.848567	59.022740
198.697250	58.992401
201.587368	58.965897
204.519524	58.941580
207.494329	58.922419
210.512403	58.903039
213.574377	58.885572
216.680888	58.867850
219.832584	58.869956
223.030122	58.889183
226.274170	58.908522
229.565404	58.927672
232.904509	58.947100
236.292183	58.977111
239.729132	59.010078
243.216073	59.045404
246.753732	59.081125
250.342848	59.123668
253.984168	59.176577
257.678453	59.225689
261.426473	59.271495
265.229008	59.319173
269.086853	59.366428
273.000811	59.419395
276.971700	59.472385
281.000346	59.514992
285.087590	59.567296
289.234284	59.620218
293.441294	59.668325
297.709496	59.715146
302.039780	59.768108
306.433050	59.812965
310.890221	59.855320
315.412224	59.905045
320.000000	59.958020
324.654507	60.010931
329.376716	60.063865
334.167610	60.116822
339.028190	60.169801
343.959469	60.213273
348.962474	60.264755
354.038251	60.317666
359.187855	60.370599
364.412363	60.417757
369.712863	60.460116
375.090460	60.499115
380.546277	60.532397
386.081450	60.558834
391.697134	60.578153
397.394500	60.592174
403.174736	60.606400
409.039048	60.607951
414.988657	60.594845
421.024807	60.581549
427.148753	60.566552
433.361775	60.543113
439.665167	60.516073
446.060244	60.480717
452.548340	60.445454
459.130807	60.410192
465.809019	60.374900
472.584367	60.339578
479.458265	60.303663
486.432146	60.261830
493.507464	60.231652
500.685695	60.198402
507.968337	60.160590
515.356906	60.120468
522.852945	60.085491
530.458016	60.055300
538.173706	60.025067
546.001623	59.993862
553.943399	59.958534
562.000691	59.928023
570.175180	59.897763
578.468569	59.867245
586.882588	59.831990
595.418991	59.796726
604.079560	59.764209
612.866100	59.733874
621.780442	59.703672
630.824447	59.673444
640.000000	59.643885
649.309014	59.617460
658.753431	59.592600
668.335221	59.569029
678.056380	59.547155
687.918938	59.525932
697.924949	59.508486
708.076501	59.493433
718.375711	59.478161
728.824726	59.465022
739.425726	59.452663
750.180921	59.440124
761.092554	59.425871
772.162900	59.404797
783.394268	59.388209
794.789000	59.407319
806.349472	59.426707
818.078095	59.440753
829.977315	59.453929
842.049613	59.467297
854.297507	59.482858
866.723550	59.500453
879.330334	59.518425
892.120489	59.539455
905.096680	59.560789
918.261614	59.590694
931.618037	59.627287
945.168733	59.669647
958.916529	59.716800
972.864291	59.769766
987.014928	59.822755
1001.371391	59.892717
1015.936673	59.950565
1030.713812	60.019297
1045.705890	60.104519
1060.916032	60.175164
1076.347412	60.258987
1092.003245	60.330936
1107.886798	60.416155
1124.001383	60.488961
1140.350359	60.572015
1156.937137	60.642578
1173.765175	60.727795
1190.837983	60.802899
1208.159120	60.886874
1225.732199	60.970851
1243.560885	61.054830
1261.648894	61.139316
1280.000000	61.239123
1298.618029	61.328648
1317.506863	61.434548
1336.670442	61.524022
1356.112761	61.624440
1375.837875	61.730312
1395.849898	61.836229
1416.153002	61.942117
1436.751422	62.048015
1457.649452	62.175841
1478.851452	62.282839
1500.361842	62.409594
1522.185107	62.537415
1544.325799	62.665237
1566.788535	62.815000
1589.577999	62.942838
1612.698944	63.071180
1636.156190	63.220406
1659.954630	63.363187
1684.099226	63.519932
1708.595013	63.669687
1733.447100	63.823151
1758.660669	63.991100
1784.240977	64.159030
1810.193360	64.356443
1836.523229	64.538762
1863.236074	64.706704
1890.337467	64.918509
1917.833058	65.130315
1945.728583	65.298246
1974.029857	65.518166
2002.742782	65.721838
2031.873347	65.933641
2061.427625	66.145447
2091.411780	66.380348
2121.832065	66.612900
2152.694823	66.824695
2184.006490	67.036494
2215.773596	67.292156
2248.002765	67.507925
2280.700718	67.759622
2313.874274	68.015273
2347.530351	68.227069
2381.675966	68.482728
2416.318240	68.738391
2451.464399	68.950198
2487.121769	69.205855
2523.297789	69.449329
2560.000000	69.673303
2597.236057	69.928963
2635.013726	70.140766
2673.340883	70.352574
2712.225522	70.564368
2751.675750	70.776161
2791.699796	70.987958
2832.306004	71.155899
2873.502844	71.323844
2915.298905	71.469548
2957.702904	71.591216
3000.723683	71.661836
3044.370214	71.714549
3088.651599	71.727625
3133.577071	71.740891
3179.155999	71.754350
3225.397888	71.740518
3272.312380	71.726410
3319.909260	71.712098
3368.198452	71.662253
3417.190027	71.576058
3466.894200	71.470183
3517.321337	71.342352
3568.481954	71.214519
3620.386720	71.076848
3673.046457	70.936933
3726.472148	70.809105
3780.674934	70.659318
3835.666117	70.509585
3891.457165	70.337893
3948.059713	70.166198
4005.485564	69.988987
4063.746693	69.777180
4122.855250	69.521522
4182.823560	69.265870
4243.664130	68.966355
4305.389646	68.693321
4368.012981	68.411173
4431.547192	68.155506
4496.005531	67.899850
4561.401437	67.688058
4627.748549	67.476261
4695.060701	67.264461
4763.351932	67.100896
4832.636481	66.973267
4902.928797	66.889094
4974.243539	66.817494
5046.595577	66.746874
5120.000000	66.684880
5194.472115	66.619006
5270.027452	66.535026
5346.681766	66.449837
5424.451043	66.345185
5503.351500	66.239282
5583.399591	66.155317
5664.612008	66.065129
5747.005687	65.994532
5830.597810	65.949648
5915.405808	65.923077
6001.447367	65.945397
6088.740429	65.983768
6177.303198	66.077206
6267.154142	66.205035
6358.311998	66.354814
6450.795775	66.517929
6544.624761	66.685868
6639.818520	66.826004
6736.396904	66.953832
6834.380053	67.074888
6933.788400	67.160113
7034.642675	67.230726
7136.963909	67.315938
7240.773439	67.370170
7346.092914	67.405433
7452.944296	67.383866
7561.349867	67.292627
7671.332234	67.124691
7782.914330	66.852098
7896.119426	66.472350
8010.971128	66.004876
8127.493386	65.499122
8245.710500	64.951463
8365.647121	64.403792
8487.328260	63.856110
8610.779292	63.308417
8736.025961	62.761527
8863.094385	62.213055
8992.011061	61.621535
9122.802874	60.986143
9255.497097	60.336074
9390.121402	59.627606
9526.703863	58.904463
9665.272962	58.225233
9805.857594	57.633711
9948.487077	57.107066
10093.191154	56.740854
10240.000000	56.566524
10388.944230	56.552263
10540.054903	56.618319
10693.363532	56.790001
10848.902086	56.907173
11006.703001	56.879775
11166.799182	56.700714
11329.224017	56.364829
11494.011375	55.941247
11661.195620	55.517656
11830.811616	55.156678
12002.894734	54.901016
12177.480858	54.826445
12354.606395	55.057913
12534.308283	55.668058
12716.623996	56.616852
12901.591551	57.825055
13089.249521	59.052016
13279.637040	60.098280
13472.793808	60.653033
13668.760107	60.720540
13867.576801	60.546185
14069.285350	60.290525
14273.927818	60.078721
14481.546879	59.933488
14692.185828	59.826566
14905.888592	59.756007
15122.699734	59.698257
15342.664467	59.597595
15565.828661	59.465820
15792.238852	59.297871
16021.942256	59.042220
16254.986772	58.786567
16491.420999	58.487050
16731.294241	58.231390
16974.656520	57.975725
17221.558584	57.763918
17472.051922	57.508268
17726.188769	57.180667
17984.022122	56.963406
18245.605748	56.745212
18510.994194	57.066993
18780.242805	57.194941
19053.407727	56.851523
19330.545924	53.292614
19611.715189	50.841331
19896.974155	50.043860
20186.382308	50.043860